# Pulseq sequence file
# Created by PyPulseq

[VERSION]
major 1
minor 4
revision 0

[DEFINITIONS]
AdcRasterTime 2.60416667e-05 
BlockDurationRaster 1e-05 
GradientRasterTime 1e-05 
RadiofrequencyRasterTime 1e-06 
TotalDuration 107.73 

# Format of blocks:
# NUM DUR RF  GX  GY  GZ  ADC  EXT
[BLOCKS]
  1  25   0   0   0   1  0  0
  2 225   1   0   0   2  0  0
  3 140   0   4   0   3  0  0
  4 276   2   0   0   5  0  0
  5  86   0   7   8   6  0  0
  6 336   0   9   0   0  0  0
  7  86   0  11   8  10  0  0
  8 276   3   0   0  12  0  0
  9  86   0  14   8  13  0  0
 10 336   0  15   0   0  0  0
 11  86   0  17   8  16  0  0
 12 276   3   0   0  12  0  0
 13  86   0  14   8  13  0  0
 14 336   0  15   0   0  0  0
 15  86   0  17   8  16  0  0
 16 276   3   0   0  12  0  0
 17  86   0  14   8  13  0  0
 18 336   0  15   0   0  0  0
 19  86   0  17   8  16  0  0
 20 276   3   0   0  12  0  0
 21  86   0  14   8  13  0  0
 22 336   0  15   0   0  0  0
 23  86   0  17   8  16  0  0
 24 276   3   0   0  12  0  0
 25  86   0  14   8  13  0  0
 26 336   0  15   0   0  0  0
 27  86   0  17   8  16  0  0
 28 276   3   0   0  12  0  0
 29  86   0  14   8  13  0  0
 30 336   0  15   0   0  0  0
 31  86   0  17   8  16  0  0
 32 276   3   0   0  12  0  0
 33  86   0  14   8  13  0  0
 34 336   0  15   0   0  0  0
 35  86   0  17   8  16  0  0
 36 276   3   0   0  12  0  0
 37  86   0  14   8  13  0  0
 38 336   0  15   0   0  0  0
 39  86   0  17   8  16  0  0
 40 276   3   0   0  12  0  0
 41  86   0  14   8  13  0  0
 42 336   0  15   0   0  0  0
 43 263   0  17   8  18  0  0
 44 504593   0   0   0   0  0  0
 45  25   0   0   0  19  0  0
 46 225   4   0   0  20  0  0
 47 140   0   4   0  21  0  0
 48 276   3   0   0  12  0  0
 49  86   0  14   8  13  0  0
 50 336   0  15   0   0  0  0
 51  86   0  17   8  16  0  0
 52 276   3   0   0  12  0  0
 53  86   0  14   8  13  0  0
 54 336   0  15   0   0  0  0
 55  86   0  17   8  16  0  0
 56 276   3   0   0  12  0  0
 57  86   0  14   8  13  0  0
 58 336   0  15   0   0  0  0
 59  86   0  17   8  16  0  0
 60 276   3   0   0  12  0  0
 61  86   0  14   8  13  0  0
 62 336   0  15   0   0  0  0
 63  86   0  17   8  16  0  0
 64 276   3   0   0  12  0  0
 65  86   0  14   8  13  0  0
 66 336   0  15   0   0  0  0
 67  86   0  17   8  16  0  0
 68 276   3   0   0  12  0  0
 69  86   0  14   8  13  0  0
 70 336   0  15   0   0  0  0
 71  86   0  17   8  16  0  0
 72 276   3   0   0  12  0  0
 73  86   0  14   8  13  0  0
 74 336   0  15   0   0  0  0
 75  86   0  17   8  16  0  0
 76 276   3   0   0  12  0  0
 77  86   0  14   8  13  0  0
 78 336   0  15   0   0  0  0
 79  86   0  17   8  16  0  0
 80 276   3   0   0  12  0  0
 81  86   0  14   8  13  0  0
 82 336   0  15   0   0  0  0
 83  86   0  17   8  16  0  0
 84 276   3   0   0  12  0  0
 85  86   0  14   8  13  0  0
 86 336   0  15   0   0  0  0
 87 263   0  17   8  18  0  0
 88 504593   0   0   0   0  0  0
 89  25   0   0   0  19  0  0
 90 225   4   0   0  20  0  0
 91 140   0   4   0  21  0  0
 92 276   3   0   0  12  0  0
 93  86   0  14   8  13  0  0
 94 336   0  15   0   0  0  0
 95  86   0  17   8  16  0  0
 96 276   3   0   0  12  0  0
 97  86   0  14   8  13  0  0
 98 336   0  15   0   0  0  0
 99  86   0  17   8  16  0  0
100 276   3   0   0  12  0  0
101  86   0  14   8  13  0  0
102 336   0  15   0   0  0  0
103  86   0  17   8  16  0  0
104 276   3   0   0  12  0  0
105  86   0  14   8  13  0  0
106 336   0  15   0   0  0  0
107  86   0  17   8  16  0  0
108 276   3   0   0  12  0  0
109  86   0  14   8  13  0  0
110 336   0  15   0   0  0  0
111  86   0  17   8  16  0  0
112 276   3   0   0  12  0  0
113  86   0  14   8  13  0  0
114 336   0  15   0   0  0  0
115  86   0  17   8  16  0  0
116 276   3   0   0  12  0  0
117  86   0  14   8  13  0  0
118 336   0  15   0   0  0  0
119  86   0  17   8  16  0  0
120 276   3   0   0  12  0  0
121  86   0  14   8  13  0  0
122 336   0  15   0   0  0  0
123  86   0  17   8  16  0  0
124 276   3   0   0  12  0  0
125  86   0  14   8  13  0  0
126 336   0  15   0   0  0  0
127  86   0  17   8  16  0  0
128 276   3   0   0  12  0  0
129  86   0  14   8  13  0  0
130 336   0  15   0   0  0  0
131 263   0  17   8  18  0  0
132 504593   0   0   0   0  0  0
133  25   0   0   0  19  0  0
134 225   4   0   0  20  0  0
135 140   0   4   0  21  0  0
136 276   3   0   0  12  0  0
137  86   0  14   8  13  0  0
138 336   0  15   0   0  0  0
139  86   0  17   8  16  0  0
140 276   3   0   0  12  0  0
141  86   0  14   8  13  0  0
142 336   0  15   0   0  0  0
143  86   0  17   8  16  0  0
144 276   3   0   0  12  0  0
145  86   0  14   8  13  0  0
146 336   0  15   0   0  0  0
147  86   0  17   8  16  0  0
148 276   3   0   0  12  0  0
149  86   0  14   8  13  0  0
150 336   0  15   0   0  0  0
151  86   0  17   8  16  0  0
152 276   3   0   0  12  0  0
153  86   0  14   8  13  0  0
154 336   0  15   0   0  0  0
155  86   0  17   8  16  0  0
156 276   3   0   0  12  0  0
157  86   0  14   8  13  0  0
158 336   0  15   0   0  0  0
159  86   0  17   8  16  0  0
160 276   3   0   0  12  0  0
161  86   0  14   8  13  0  0
162 336   0  15   0   0  0  0
163  86   0  17   8  16  0  0
164 276   3   0   0  12  0  0
165  86   0  14   8  13  0  0
166 336   0  15   0   0  0  0
167  86   0  17   8  16  0  0
168 276   3   0   0  12  0  0
169  86   0  14   8  13  0  0
170 336   0  15   0   0  0  0
171  86   0  17   8  16  0  0
172 276   3   0   0  12  0  0
173  86   0  14   8  13  0  0
174 336   0  15   0   0  0  0
175 263   0  17   8  18  0  0
176 504593   0   0   0   0  0  0
177  25   0   0   0  19  0  0
178 225   4   0   0  20  0  0
179 140   0   4   0  21  0  0
180 276   3   0   0  12  0  0
181  86   0  14   8  13  0  0
182 336   0  15   0   0  0  0
183  86   0  17   8  16  0  0
184 276   3   0   0  12  0  0
185  86   0  14   8  13  0  0
186 336   0  15   0   0  0  0
187  86   0  17   8  16  0  0
188 276   3   0   0  12  0  0
189  86   0  14   8  13  0  0
190 336   0  15   0   0  0  0
191  86   0  17   8  16  0  0
192 276   3   0   0  12  0  0
193  86   0  14   8  13  0  0
194 336   0  15   0   0  0  0
195  86   0  17   8  16  0  0
196 276   3   0   0  12  0  0
197  86   0  14   8  13  0  0
198 336   0  15   0   0  0  0
199  86   0  17   8  16  0  0
200 276   3   0   0  12  0  0
201  86   0  14   8  13  0  0
202 336   0  15   0   0  0  0
203  86   0  17   8  16  0  0
204 276   3   0   0  12  0  0
205  86   0  14   8  13  0  0
206 336   0  15   0   0  0  0
207  86   0  17   8  16  0  0
208 276   3   0   0  12  0  0
209  86   0  14   8  13  0  0
210 336   0  15   0   0  0  0
211  86   0  17   8  16  0  0
212 276   3   0   0  12  0  0
213  86   0  14   8  13  0  0
214 336   0  15   0   0  0  0
215  86   0  17   8  16  0  0
216 276   3   0   0  12  0  0
217  86   0  14   8  13  0  0
218 336   0  15   0   0  0  0
219 263   0  17   8  18  0  0
220 504593   0   0   0   0  0  0
221  25   0   0   0  19  0  0
222 225   4   0   0  20  0  0
223 140   0   4   0  21  0  0
224 276   3   0   0  12  0  0
225  86   0  14   8  13  0  0
226 336   0  15   0   0  0  0
227  86   0  17   8  16  0  0
228 276   3   0   0  12  0  0
229  86   0  14   8  13  0  0
230 336   0  15   0   0  0  0
231  86   0  17   8  16  0  0
232 276   3   0   0  12  0  0
233  86   0  14   8  13  0  0
234 336   0  15   0   0  0  0
235  86   0  17   8  16  0  0
236 276   3   0   0  12  0  0
237  86   0  14   8  13  0  0
238 336   0  15   0   0  0  0
239  86   0  17   8  16  0  0
240 276   3   0   0  12  0  0
241  86   0  14   8  13  0  0
242 336   0  15   0   0  0  0
243  86   0  17   8  16  0  0
244 276   3   0   0  12  0  0
245  86   0  14   8  13  0  0
246 336   0  15   0   0  0  0
247  86   0  17   8  16  0  0
248 276   3   0   0  12  0  0
249  86   0  14   8  13  0  0
250 336   0  15   0   0  0  0
251  86   0  17   8  16  0  0
252 276   3   0   0  12  0  0
253  86   0  14   8  13  0  0
254 336   0  15   0   0  0  0
255  86   0  17   8  16  0  0
256 276   3   0   0  12  0  0
257  86   0  14   8  13  0  0
258 336   0  15   0   0  0  0
259  86   0  17   8  16  0  0
260 276   3   0   0  12  0  0
261  86   0  14   8  13  0  0
262 336   0  15   0   0  0  0
263 263   0  17   8  18  0  0
264 504593   0   0   0   0  0  0
265  25   0   0   0  19  0  0
266 225   4   0   0  20  0  0
267 140   0   4   0  21  0  0
268 276   3   0   0  12  0  0
269  86   0  14   8  13  0  0
270 336   0  15   0   0  0  0
271  86   0  17   8  16  0  0
272 276   3   0   0  12  0  0
273  86   0  14   8  13  0  0
274 336   0  15   0   0  0  0
275  86   0  17   8  16  0  0
276 276   3   0   0  12  0  0
277  86   0  14   8  13  0  0
278 336   0  15   0   0  0  0
279  86   0  17   8  16  0  0
280 276   3   0   0  12  0  0
281  86   0  14   8  13  0  0
282 336   0  15   0   0  0  0
283  86   0  17   8  16  0  0
284 276   3   0   0  12  0  0
285  86   0  14   8  13  0  0
286 336   0  15   0   0  0  0
287  86   0  17   8  16  0  0
288 276   3   0   0  12  0  0
289  86   0  14   8  13  0  0
290 336   0  15   0   0  0  0
291  86   0  17   8  16  0  0
292 276   3   0   0  12  0  0
293  86   0  14   8  13  0  0
294 336   0  15   0   0  0  0
295  86   0  17   8  16  0  0
296 276   3   0   0  12  0  0
297  86   0  14   8  13  0  0
298 336   0  15   0   0  0  0
299  86   0  17   8  16  0  0
300 276   3   0   0  12  0  0
301  86   0  14   8  13  0  0
302 336   0  15   0   0  0  0
303  86   0  17   8  16  0  0
304 276   3   0   0  12  0  0
305  86   0  14   8  13  0  0
306 336   0  15   0   0  0  0
307 263   0  17   8  18  0  0
308 504593   0   0   0   0  0  0
309  25   0   0   0  19  0  0
310 225   4   0   0  20  0  0
311 140   0   4   0  21  0  0
312 276   3   0   0  12  0  0
313  86   0  14   8  13  0  0
314 336   0  15   0   0  0  0
315  86   0  17   8  16  0  0
316 276   3   0   0  12  0  0
317  86   0  14   8  13  0  0
318 336   0  15   0   0  0  0
319  86   0  17   8  16  0  0
320 276   3   0   0  12  0  0
321  86   0  14   8  13  0  0
322 336   0  15   0   0  0  0
[RF]
1      480.714 5 6 0 100 0 1.5708
2      850.972 10 11 0 100 0 0
3      850.972 10 11 0 100 0 0
4      480.714 5 6 0 100 0 1.5708

# Format of arbitrary gradients:
#   time_shape_id of 0 means default timing (stepping with grad_raster starting at 1/2 of grad_raster)
# id amplitude amp_shape_id time_shape_id delay
# ..      Hz/m       ..         ..          us
[GRADIENTS]
1       370732 1 2 0
2       370732 3 4 0
3       370732 7 8 0
5       328125 3 9 0
6  1.13954e+06 12 13 0
7       867111 14 13 0
9       146520 3 15 0
10  1.13954e+06 16 13 0
11       867111 17 13 0
12       328125 3 9 0
13  1.13954e+06 12 13 0
14       867111 14 13 0
15       146520 3 15 0
16  1.13954e+06 16 13 0
17       867111 17 13 0
19       370732 1 2 0
20       370732 3 4 0
21       370732 7 8 0

# Format of trapezoid gradients:
# id amplitude rise flat fall delay
# ..      Hz/m   us   us   us    us
[TRAP]
 4       689919 250  900 250   0
 8            0 250  360 250   0
18   1.6049e+06 320 1990 320   0
22       403531 250  360 250   0
23      -403531 250  360 250   0
24      -334174 250  360 250   0
25       334174 250  360 250   0
26       321564 250  360 250   0
27      -321564 250  360 250   0
28      -252207 250  360 250   0
29       252207 250  360 250   0
30       239596 250  360 250   0
31      -239596 250  360 250   0
32      -170240 250  360 250   0
33       170240 250  360 250   0
34       157629 250  360 250   0
35      -157629 250  360 250   0
36        75662 250  360 250   0
37       -75662 250  360 250   0
38     -6305.17 250  360 250   0
39      6305.17 250  360 250   0
40     -88272.4 250  360 250   0
41      88272.4 250  360 250   0
42       397226 250  360 250   0
43      -397226 250  360 250   0
44      -340479 250  360 250   0
45       340479 250  360 250   0
46       315259 250  360 250   0
47      -315259 250  360 250   0
48      -258512 250  360 250   0
49       258512 250  360 250   0
50       233291 250  360 250   0
51      -233291 250  360 250   0
52      -176545 250  360 250   0
53       176545 250  360 250   0
54       151324 250  360 250   0
55      -151324 250  360 250   0
56      69356.9 250  360 250   0
57     -69356.9 250  360 250   0
58     -12610.3 250  360 250   0
59      12610.3 250  360 250   0
60     -94577.6 250  360 250   0
61      94577.6 250  360 250   0
62       390921 250  360 250   0
63      -390921 250  360 250   0
64      -346784 250  360 250   0
65       346784 250  360 250   0
66       308953 250  360 250   0
67      -308953 250  360 250   0
68      -264817 250  360 250   0
69       264817 250  360 250   0
70       226986 250  360 250   0
71      -226986 250  360 250   0
72      -182850 250  360 250   0
73       182850 250  360 250   0
74       145019 250  360 250   0
75      -145019 250  360 250   0
76      63051.7 250  360 250   0
77     -63051.7 250  360 250   0
78     -18915.5 250  360 250   0
79      18915.5 250  360 250   0
80      -100883 250  360 250   0
81       100883 250  360 250   0
82       384615 250  360 250   0
83      -384615 250  360 250   0
84      -353090 250  360 250   0
85       353090 250  360 250   0
86       302648 250  360 250   0
87      -302648 250  360 250   0
88      -271122 250  360 250   0
89       271122 250  360 250   0
90       220681 250  360 250   0
91      -220681 250  360 250   0
92      -189155 250  360 250   0
93       189155 250  360 250   0
94       138714 250  360 250   0
95      -138714 250  360 250   0
96      56746.5 250  360 250   0
97     -56746.5 250  360 250   0
98     -25220.7 250  360 250   0
99      25220.7 250  360 250   0
100      -107188 250  360 250   0
101       107188 250  360 250   0
102       378310 250  360 250   0
103      -378310 250  360 250   0
104      -359395 250  360 250   0
105       359395 250  360 250   0
106       296343 250  360 250   0
107      -296343 250  360 250   0
108      -277427 250  360 250   0
109       277427 250  360 250   0
110       214376 250  360 250   0
111      -214376 250  360 250   0
112      -195460 250  360 250   0
113       195460 250  360 250   0
114       132409 250  360 250   0
115      -132409 250  360 250   0
116      50441.4 250  360 250   0
117     -50441.4 250  360 250   0
118     -31525.9 250  360 250   0
119      31525.9 250  360 250   0
120      -113493 250  360 250   0
121       113493 250  360 250   0
122       372005 250  360 250   0
123      -372005 250  360 250   0
124      -365700 250  360 250   0
125       365700 250  360 250   0
126       290038 250  360 250   0
127      -290038 250  360 250   0
128      -283733 250  360 250   0
129       283733 250  360 250   0
130       208071 250  360 250   0
131      -208071 250  360 250   0
132      -201765 250  360 250   0
133       201765 250  360 250   0
134       126103 250  360 250   0
135      -126103 250  360 250   0
136      44136.2 250  360 250   0
137     -44136.2 250  360 250   0
138       -37831 250  360 250   0
139        37831 250  360 250   0
140      -119798 250  360 250   0
141       119798 250  360 250   0
142      -327869 250  360 250   0
143       327869 250  360 250   0
144      -245902 250  360 250   0
145       245902 250  360 250   0
146      -163934 250  360 250   0
147       163934 250  360 250   0
148      81967.2 250  360 250   0
149     -81967.2 250  360 250   0
150           -0 250  360 250   0

# Format of ADC events:
# id num dwell delay freq phase
# ..  ..    ns    us   Hz   rad
[ADC]
1 128 26094 10 0 0

# Sequence Shapes
[SHAPES]

shape_id 1
num_samples 2
0
1

shape_id 2
num_samples 2
0
25

shape_id 3
num_samples 2
1
1

shape_id 4
num_samples 2
0
225

shape_id 5
num_samples 2050
0.024039331
0.0244895789
0.0249400184
0.0253906427
0.0258414447
0.0262924176
0.0267435544
0.0271948481
0.0276462917
0.0280978781
0.0285496002
0.0290014509
0.029453423
0.0299055094
0.0303577029
0.0308099961
0.0312623818
0.0317148526
0.0321674013
0.0326200203
0.0330727022
0.0335254396
0.033978225
0.0344310507
0.0348839093
0.0353367929
0.0357896941
0.036242605
0.036695518
0.0371484251
0.0376013185
0.0380541905
0.0385070329
0.0389598379
0.0394125974
0.0398653033
0.0403179476
0.0407705221
0.0412230185
0.0416754285
0.042127744
0.0425799565
0.0430320576
0.0434840389
0.0439358918
0.0443876079
0.0448391783
0.0452905946
0.045741848
0.0461929298
0.046643831
0.0470945428
0.0475450563
0.0479953625
0.0484454523
0.0488953167
0.0493449464
0.0497943323
0.050243465
0.0506923353
0.0511409337
0.0515892508
0.052037277
0.0524850028
0.0529324186
0.0533795146
0.0538262811
0.0542727082
0.0547187861
0.0551645048
0.0556098542
0.0560548244
0.0564994051
0.0569435861
0.0573873572
0.057830708
0.0582736281
0.0587161069
0.059158134
0.0595996987
0.0600407904
0.0604813982
0.0609215114
0.061361119
0.0618002101
0.0622387736
0.0626767984
0.0631142734
0.0635511872
0.0639875285
0.064423286
0.0648584481
0.0652930033
0.0657269399
0.0661602463
0.0665929107
0.0670249212
0.0674562659
0.0678869327
0.0683169097
0.0687461846
0.0691747451
0.069602579
0.0700296739
0.0704560173
0.0708815966
0.0713063992
0.0717304124
0.0721536234
0.0725760193
0.0729975871
0.0734183138
0.0738381864
0.0742571915
0.074675316
0.0750925464
0.0755088693
0.0759242712
0.0763387384
0.0767522572
0.077164814
0.0775763947
0.0779869855
0.0783965724
0.0788051411
0.0792126776
0.0796191674
0.0800245963
0.0804289498
0.0808322134
0.0812343723
0.0816354119
0.0820353174
0.0824340739
0.0828316665
0.08322808
0.0836232993
0.0840173092
0.0844100943
0.0848016393
0.0851919286
0.0855809466
0.0859686778
0.0863551063
0.0867402162
0.0871239917
0.0875064167
0.0878874751
0.0882671506
0.0886454271
0.0890222881
0.0893977172
0.0897716977
0.0901442132
0.0905152467
0.0908847816
0.0912528008
0.0916192875
0.0919842245
0.0923475946
0.0927093806
0.0930695651
0.0934281307
0.0937850599
0.0941403351
0.0944939384
0.0948458523
0.0951960587
0.0955445397
0.0958912773
0.0962362532
0.0965794494
0.0969208474
0.0972604288
0.0975981753
0.0979340681
0.0982680886
0.098600218
0.0989304376
0.0992587284
0.0995850714
0.0999094474
0.100231837
0.100552222
0.100870582
0.101186898
0.10150115
0.101813318
0.102123384
0.102431327
0.102737127
0.103040765
0.10334222
0.103641472
0.103938502
0.104233288
0.104525811
0.104816049
0.105103984
0.105389593
0.105672856
0.105953753
0.106232262
0.106508363
0.106782035
0.107053256
0.107322006
0.107588263
0.107852006
0.108113213
0.108371863
0.108627935
0.108881407
0.109132256
0.109380463
0.109626003
0.109868857
0.110109001
0.110346414
0.110581073
0.110812956
0.111042042
0.111268307
0.111491729
0.111712286
0.111929955
0.112144714
0.112356539
0.112565409
0.1127713
0.11297419
0.113174055
0.113370872
0.113564619
0.113755272
0.113942808
0.114127203
0.114308435
0.114486481
0.114661315
0.114832916
0.11500126
0.115166322
0.115328079
0.115486508
0.115641585
0.115793286
0.115941586
0.116086463
0.116227891
0.116365848
0.116500309
0.116631249
0.116758644
0.116882471
0.117002705
0.117119322
0.117232297
0.117341606
0.117447224
0.117549127
0.11764729
0.117741689
0.117832299
0.117919096
0.118002054
0.118081149
0.118156356
0.11822765
0.118295007
0.118358402
0.118417809
0.118473204
0.118524562
0.118571857
0.118615066
0.118654161
0.11868912
0.118719915
0.118746524
0.118768919
0.118787076
0.11880097
0.118810575
0.118815867
0.118816819
0.118813408
0.118805607
0.118793391
0.118776735
0.118755613
0.11873
0.118699872
0.118665202
0.118625964
0.118582135
0.118533688
0.118480598
0.118422839
0.118360387
0.118293216
0.1182213
0.118144614
0.118063132
0.11797683
0.117885682
0.117789663
0.117688746
0.117582908
0.117472122
0.117356363
0.117235607
0.117109827
0.116978998
0.116843096
0.116702094
0.116555968
0.116404692
0.116248242
0.116086592
0.115919717
0.115747592
0.115570192
0.115387492
0.115199466
0.11500609
0.11480734
0.114603189
0.114393613
0.114178588
0.113958088
0.113732089
0.113500565
0.113263493
0.113020848
0.112772605
0.11251874
0.112259228
0.111994044
0.111723165
0.111446565
0.111164222
0.110876109
0.110582205
0.110282483
0.10997692
0.109665493
0.109348177
0.109024948
0.108695783
0.108360657
0.108019548
0.107672432
0.107319285
0.106960083
0.106594804
0.106223423
0.105845919
0.105462267
0.105072445
0.104676429
0.104274197
0.103865726
0.103450994
0.103029977
0.102602653
0.102169
0.101728995
0.101282616
0.100829841
0.100370648
0.0999050145
0.0994329191
0.0989543398
0.0984692551
0.0979776434
0.0974794832
0.0969747532
0.0964634321
0.0959454988
0.0954209323
0.0948897117
0.0943518162
0.0938072252
0.093255918
0.0926978744
0.0921330739
0.0915614964
0.0909831217
0.0903979301
0.0898059017
0.0892070167
0.0886012557
0.0879885992
0.087369028
0.0867425229
0.0861090648
0.085468635
0.0848212147
0.0841667853
0.0835053283
0.0828368255
0.0821612587
0.0814786098
0.080788861
0.0800919947
0.0793879931
0.078676839
0.0779585151
0.0772330043
0.0765002896
0.0757603542
0.0750131816
0.0742587553
0.073497059
0.0727280766
0.071951792
0.0711681896
0.0703772536
0.0695789687
0.0687733196
0.0679602911
0.0671398683
0.0663120365
0.0654767811
0.0646340877
0.0637839421
0.0629263302
0.0620612383
0.0611886526
0.0603085597
0.0594209463
0.0585257993
0.0576231058
0.0567128532
0.0557950287
0.0548696203
0.0539366157
0.052996003
0.0520477705
0.0510919067
0.0501284002
0.0491572399
0.048178415
0.0471919147
0.0461977285
0.0451958462
0.0441862576
0.043168953
0.0421439226
0.041111157
0.0400706471
0.0390223837
0.0379663582
0.0369025619
0.0358309866
0.0347516241
0.0336644665
0.0325695061
0.0314667356
0.0303561477
0.0292377354
0.028111492
0.0269774109
0.025835486
0.024685711
0.0235280802
0.022362588
0.0211892291
0.0200079984
0.018818891
0.0176219023
0.0164170279
0.0152042637
0.0139836057
0.0127550504
0.0115185943
0.0102742344
0.00902196762
0.00776179142
0.00649370337
0.00521770134
0.00393378343
0.00264194803
0.00134219373
3.45194427e-05
0.00128107571
0.00260459233
0.00393603076
0.00527539107
0.00662267308
0.00797787635
0.00934100016
0.0107120435
0.0120910053
0.0134778838
0.0148726774
0.0162753839
0.0176860011
0.0191045265
0.020530957
0.0219652896
0.0234075209
0.0248576472
0.0263156645
0.0277815686
0.029255355
0.0307370189
0.0322265552
0.0337239586
0.0352292234
0.0367423437
0.0382633134
0.0397921259
0.0413287745
0.0428732521
0.0444255515
0.0459856649
0.0475535845
0.0491293021
0.0507128092
0.052304097
0.0539031565
0.0555099783
0.0571245528
0.0587468701
0.0603769198
0.0620146916
0.0636601745
0.0653133576
0.0669742293
0.068642778
0.0703189916
0.072002858
0.0736943646
0.0753934983
0.0771002462
0.0788145946
0.0805365298
0.0822660377
0.084003104
0.085747714
0.0874998527
0.0892595048
0.0910266548
0.0928012868
0.0945833845
0.0963729316
0.0981699112
0.0999743062
0.101786099
0.103605273
0.105431808
0.107265688
0.109106893
0.110955405
0.112811204
0.114674271
0.116544586
0.118422129
0.120306879
0.122198815
0.124097918
0.126004164
0.127917533
0.129838003
0.131765551
0.133700154
0.135641791
0.137590437
0.13954607
0.141508664
0.143478197
0.145454644
0.14743798
0.14942818
0.151425219
0.153429071
0.15543971
0.157457109
0.159481243
0.161512085
0.163549607
0.165593781
0.167644581
0.169701978
0.171765943
0.173836447
0.175913463
0.17799696
0.180086909
0.18218328
0.184286043
0.186395167
0.188510622
0.190632375
0.192760397
0.194894655
0.197035117
0.19918175
0.201334523
0.203493402
0.205658354
0.207829346
0.210006343
0.212189311
0.214378217
0.216573025
0.218773701
0.220980208
0.223192512
0.225410576
0.227634365
0.229863842
0.23209897
0.234339711
0.23658603
0.238837887
0.241095246
0.243358067
0.245626312
0.247899944
0.250178921
0.252463206
0.254752757
0.257047537
0.259347503
0.261652616
0.263962835
0.266278119
0.268598426
0.270923715
0.273253944
0.27558907
0.277929052
0.280273846
0.28262341
0.284977699
0.287336672
0.289700283
0.292068488
0.294441244
0.296818505
0.299200228
0.301586365
0.303976873
0.306371705
0.308770816
0.311174158
0.313581686
0.315993354
0.318409113
0.320828916
0.323252717
0.325680467
0.328112119
0.330547623
0.332986932
0.335429997
0.337876768
0.340327197
0.342781234
0.345238829
0.347699931
0.350164492
0.35263246
0.355103785
0.357578415
0.3600563
0.362537388
0.365021628
0.367508967
0.369999353
0.372492734
0.374989058
0.377488271
0.379990321
0.382495155
0.385002718
0.387512957
0.390025819
0.392541249
0.395059193
0.397579596
0.400102404
0.402627561
0.405155013
0.407684703
0.410216577
0.412750579
0.415286653
0.417824742
0.42036479
0.422906741
0.425450538
0.427996123
0.43054344
0.433092432
0.43564304
0.438195208
0.440748877
0.443303989
0.445860486
0.44841831
0.450977401
0.453537702
0.456099153
0.458661695
0.461225269
0.463789816
0.466355275
0.468921588
0.471488693
0.474056532
0.476625043
0.479194167
0.481763843
0.48433401
0.486904608
0.489475575
0.49204685
0.494618373
0.497190081
0.499761913
0.502333808
0.504905704
0.507477538
0.510049249
0.512620775
0.515192052
0.51776302
0.520333615
0.522903774
0.525473435
0.528042535
0.530611012
0.533178801
0.535745839
0.538312064
0.540877412
0.543441819
0.546005222
0.548567557
0.55112876
0.553688768
0.556247516
0.558804941
0.561360978
0.563915562
0.566468631
0.569020119
0.571569961
0.574118094
0.576664453
0.579208973
0.581751589
0.584292237
0.586830852
0.589367368
0.591901722
0.594433847
0.596963679
0.599491154
0.602016204
0.604538766
0.607058775
0.609576164
0.612090869
0.614602824
0.617111965
0.619618224
0.622121539
0.624621841
0.627119067
0.629613151
0.632104027
0.63459163
0.637075894
0.639556755
0.642034145
0.644508
0.646978254
0.649444842
0.651907698
0.654366757
0.656821952
0.65927322
0.661720493
0.664163708
0.666602797
0.669037697
0.671468341
0.673894664
0.6763166
0.678734086
0.681147054
0.683555441
0.68595918
0.688358207
0.690752456
0.693141863
0.695526362
0.697905889
0.700280378
0.702649766
0.705013986
0.707372975
0.709726667
0.712074999
0.714417905
0.716755321
0.719087183
0.721413427
0.723733988
0.726048802
0.728357805
0.730660934
0.732958124
0.735249312
0.737534434
0.739813426
0.742086226
0.744352769
0.746612992
0.748866833
0.751114228
0.753355114
0.755589429
0.75781711
0.760038094
0.762252319
0.764459722
0.766660243
0.768853817
0.771040384
0.773219882
0.775392249
0.777557424
0.779715345
0.781865951
0.784009181
0.786144974
0.78827327
0.790394008
0.792507127
0.794612567
0.796710268
0.798800171
0.800882215
0.802956341
0.805022489
0.807080601
0.809130616
0.811172477
0.813206125
0.8152315
0.817248546
0.819257203
0.821257414
0.82324912
0.825232265
0.827206792
0.829172642
0.83112976
0.833078087
0.835017569
0.836948148
0.838869769
0.840782375
0.842685912
0.844580323
0.846465553
0.848341548
0.850208252
0.852065612
0.853913572
0.85575208
0.85758108
0.85940052
0.861210346
0.863010505
0.864800945
0.866581612
0.868352454
0.87011342
0.871864458
0.873605515
0.875336541
0.877057485
0.878768295
0.880468922
0.882159315
0.883839424
0.8855092
0.887168592
0.888817553
0.890456032
0.892083982
0.893701354
0.895308101
0.896904174
0.898489525
0.900064109
0.901627878
0.903180785
0.904722785
0.90625383
0.907773877
0.909282878
0.91078079
0.912267567
0.913743166
0.915207541
0.916660649
0.918102447
0.919532892
0.92095194
0.922359549
0.923755678
0.925140283
0.926513323
0.927874758
0.929224546
0.930562647
0.93188902
0.933203626
0.934506425
0.935797377
0.937076445
0.938343588
0.93959877
0.940841952
0.942073097
0.943292167
0.944499127
0.945693938
0.946876565
0.948046973
0.949205126
0.950350989
0.951484527
0.952605706
0.953714491
0.954810851
0.95589475
0.956966156
0.958025037
0.959071361
0.960105095
0.961126209
0.962134671
0.96313045
0.964113517
0.965083842
0.966041395
0.966986146
0.967918068
0.968837131
0.969743308
0.970636571
0.971516893
0.972384247
0.973238606
0.974079945
0.974908238
0.975723459
0.976525584
0.977314589
0.978090448
0.978853139
0.979602637
0.980338921
0.981061968
0.981771755
0.982468261
0.983151464
0.983821344
0.98447788
0.985121052
0.98575084
0.986367225
0.986970188
0.987559711
0.988135776
0.988698364
0.989247459
0.989783044
0.990305102
0.990813618
0.991308576
0.99178996
0.992257756
0.992711949
0.993152526
0.993579473
0.993992776
0.994392424
0.994778404
0.995150704
0.995509313
0.995854219
0.996185412
0.996502882
0.996806619
0.997096614
0.997372857
0.997635341
0.997884057
0.998118998
0.998340156
0.998547525
0.998741098
0.998920869
0.999086833
0.999238985
0.999377319
0.999501832
0.99961252
0.99970938
0.999792408
0.999861602
0.999916959
0.999958479
0.99998616
1
1
0.99998616
0.999958479
0.999916959
0.999861602
0.999792408
0.99970938
0.99961252
0.999501832
0.999377319
0.999238985
0.999086833
0.998920869
0.998741098
0.998547525
0.998340156
0.998118998
0.997884057
0.997635341
0.997372857
0.997096614
0.996806619
0.996502882
0.996185412
0.995854219
0.995509313
0.995150704
0.994778404
0.994392424
0.993992776
0.993579473
0.993152526
0.992711949
0.992257756
0.99178996
0.991308576
0.990813618
0.990305102
0.989783044
0.989247459
0.988698364
0.988135776
0.987559711
0.986970188
0.986367225
0.98575084
0.985121052
0.98447788
0.983821344
0.983151464
0.982468261
0.981771755
0.981061968
0.980338921
0.979602637
0.978853139
0.978090448
0.977314589
0.976525584
0.975723459
0.974908238
0.974079945
0.973238606
0.972384247
0.971516893
0.970636571
0.969743308
0.968837131
0.967918068
0.966986146
0.966041395
0.965083842
0.964113517
0.96313045
0.962134671
0.961126209
0.960105095
0.959071361
0.958025037
0.956966156
0.95589475
0.954810851
0.953714491
0.952605706
0.951484527
0.950350989
0.949205126
0.948046973
0.946876565
0.945693938
0.944499127
0.943292167
0.942073097
0.940841952
0.93959877
0.938343588
0.937076445
0.935797377
0.934506425
0.933203626
0.93188902
0.930562647
0.929224546
0.927874758
0.926513323
0.925140283
0.923755678
0.922359549
0.92095194
0.919532892
0.918102447
0.916660649
0.915207541
0.913743166
0.912267567
0.91078079
0.909282878
0.907773877
0.90625383
0.904722785
0.903180785
0.901627878
0.900064109
0.898489525
0.896904174
0.895308101
0.893701354
0.892083982
0.890456032
0.888817553
0.887168592
0.8855092
0.883839424
0.882159315
0.880468922
0.878768295
0.877057485
0.875336541
0.873605515
0.871864458
0.87011342
0.868352454
0.866581612
0.864800945
0.863010505
0.861210346
0.85940052
0.85758108
0.85575208
0.853913572
0.852065612
0.850208252
0.848341548
0.846465553
0.844580323
0.842685912
0.840782375
